# Wavelength (Å), Efficiency
1.000000000000000021e-02,1.203984071671831795e-02
2.000000000000000042e-02,2.407907106800296834e-02
2.999999999999999889e-02,3.626940518053399509e-02
4.000000000000000083e-02,4.795455271927468593e-02
5.000000000000000278e-02,5.983124356715438519e-02
6.000000000000000472e-02,7.095993901771603662e-02
6.999999999999999278e-02,8.328625682258083973e-02
8.000000000000000167e-02,9.437484157278662467e-02
8.999999999999999667e-02,1.049987258861208028e-01
9.999999999999999167e-02,1.166777528190745677e-01
1.100000000000000006e-01,1.271872184379430892e-01
1.199999999999999956e-01,1.369808791385488667e-01
1.300000000000000044e-01,1.484606183898224685e-01
1.400000000000000133e-01,1.578201545691107488e-01
1.500000000000000222e-01,1.678958981287617946e-01
1.600000000000000033e-01,1.786730603714199728e-01
1.700000000000000122e-01,1.879163650617503845e-01
1.800000000000000211e-01,1.972613259322307799e-01
1.900000000000000022e-01,2.077276698739115579e-01
2.000000000000000111e-01,2.176776648948736403e-01
2.100000000000000200e-01,2.264247019988404885e-01
2.200000000000000011e-01,2.348268780605173855e-01
2.300000000000000100e-01,2.438293626154943161e-01
2.400000000000000189e-01,2.531362964727398301e-01
2.500000000000000000e-01,2.620973386223066082e-01
2.600000000000000089e-01,2.704843417942550121e-01
2.700000000000000178e-01,2.786788323812708357e-01
2.800000000000000266e-01,2.869043942119208768e-01
2.900000000000000355e-01,2.953849675692323262e-01
2.999999999999999889e-01,3.038054909380907831e-01
3.099999999999999978e-01,3.119038303766091258e-01
3.200000000000000067e-01,3.196815166246442796e-01
3.300000000000000155e-01,3.272092571599570232e-01
3.400000000000000244e-01,3.347013165927603673e-01
3.500000000000000333e-01,3.421133539999409168e-01
3.600000000000000422e-01,3.494181058610721369e-01
3.699999999999999956e-01,3.567729242321903693e-01
3.800000000000000044e-01,3.639619984920418050e-01
3.900000000000000133e-01,3.710899141584093064e-01
4.000000000000000222e-01,3.780967253659701099e-01
4.100000000000000311e-01,3.849499569288666323e-01
4.200000000000000400e-01,3.917492936254626801e-01
4.299999999999999933e-01,3.984268302217572888e-01
4.400000000000000022e-01,4.050294439279366610e-01
4.500000000000000111e-01,4.116009022572841847e-01
4.600000000000000200e-01,4.180407667472402222e-01
4.700000000000000289e-01,4.244027501841690642e-01
4.800000000000000377e-01,4.307971887724720284e-01
4.899999999999999911e-01,4.368623661736744657e-01
5.000000000000000000e-01,4.429981840815602756e-01
5.100000000000000089e-01,4.490358770139416533e-01
5.200000000000000178e-01,4.550039331213636684e-01
5.300000000000000266e-01,4.608637224444797065e-01
5.400000000000000355e-01,4.666170732117853048e-01
5.500000000000000444e-01,4.723542333588447439e-01
5.600000000000000533e-01,4.778289460942866662e-01
5.700000000000000622e-01,4.833502080947292834e-01
5.800000000000000711e-01,4.889218939594864310e-01
5.899999999999999689e-01,4.942550140853797513e-01
5.999999999999999778e-01,4.993896480886502176e-01
6.099999999999999867e-01,5.046459064273477457e-01
6.199999999999999956e-01,5.096751659782724486e-01
6.300000000000000044e-01,5.148350513241941595e-01
6.400000000000000133e-01,5.197679356784806748e-01
6.500000000000000222e-01,5.245592979982438564e-01
6.600000000000000311e-01,5.294236766770353819e-01
6.700000000000000400e-01,5.341196343966828630e-01
6.800000000000000488e-01,5.388177836737407800e-01
6.900000000000000577e-01,5.433196596470856177e-01
7.000000000000000666e-01,5.479488460852041110e-01
7.100000000000000755e-01,5.524171496911979284e-01
7.199999999999999734e-01,5.568370776479197870e-01
7.299999999999999822e-01,5.610676298944303753e-01
7.399999999999999911e-01,5.655369072838287714e-01
7.500000000000000000e-01,5.696356669763775749e-01
7.600000000000000089e-01,5.738843145261455225e-01
7.700000000000000178e-01,5.780053637870439243e-01
7.800000000000000266e-01,5.820529037732928845e-01
7.900000000000000355e-01,5.859702823560641871e-01
8.000000000000000444e-01,5.899059604514205191e-01
8.100000000000000533e-01,5.937682389300028563e-01
8.200000000000000622e-01,5.975268522550171157e-01
8.300000000000000711e-01,6.012551174998148618e-01
8.400000000000000799e-01,6.050296759640089173e-01
8.499999999999999778e-01,6.086677175939732010e-01
8.599999999999999867e-01,6.122781953366291940e-01
8.699999999999999956e-01,6.158136206956258407e-01
8.800000000000000044e-01,6.193845730781488701e-01
8.900000000000000133e-01,6.228387527884813313e-01
9.000000000000000222e-01,6.262047996474627842e-01
9.100000000000000311e-01,6.295921872903206262e-01
9.200000000000000400e-01,6.329807790141838142e-01
9.300000000000000488e-01,6.361807339261714711e-01
9.400000000000000577e-01,6.394044207374988131e-01
9.500000000000000666e-01,6.425755589254616984e-01
9.600000000000000755e-01,6.456765317961636885e-01
9.699999999999999734e-01,6.486626121187966110e-01
9.799999999999999822e-01,6.517657620554351272e-01
9.899999999999999911e-01,6.548481600679724179e-01
1.000000000000000000e+00,6.576701813223949644e-01
1.010000000000000009e+00,6.607213752734313328e-01
1.020000000000000018e+00,6.634002336180548909e-01
1.030000000000000027e+00,6.661991528408589547e-01
1.040000000000000036e+00,6.690112741344350633e-01
1.050000000000000044e+00,6.717271462775464830e-01
1.060000000000000053e+00,6.743874070295935441e-01
1.070000000000000062e+00,6.769373757606080844e-01
1.080000000000000071e+00,6.796693978020672544e-01
1.090000000000000080e+00,6.822700608537267675e-01
1.100000000000000089e+00,6.850227132432979982e-01
1.110000000000000098e+00,6.874566523874559021e-01
1.120000000000000107e+00,6.899685985816050859e-01
1.130000000000000115e+00,6.923525684662575896e-01
1.140000000000000124e+00,6.946019021006614169e-01
1.150000000000000133e+00,6.971164683421249286e-01
1.160000000000000142e+00,6.993851883152696347e-01
1.169999999999999929e+00,7.017755091918991273e-01
1.179999999999999938e+00,7.041026524439550904e-01
1.189999999999999947e+00,7.063528312570999113e-01
1.199999999999999956e+00,7.083842198985381700e-01
1.209999999999999964e+00,7.107860271264161423e-01
1.219999999999999973e+00,7.127036667536019721e-01
1.229999999999999982e+00,7.148884432937248068e-01
1.239999999999999991e+00,7.171049024106520564e-01
1.250000000000000000e+00,7.191025501205291492e-01
1.260000000000000009e+00,7.211216479386757250e-01
1.270000000000000018e+00,7.230997678719647270e-01
1.280000000000000027e+00,7.251182554045831896e-01
1.290000000000000036e+00,7.271186036328128877e-01
1.300000000000000044e+00,7.289242385052121520e-01
1.310000000000000053e+00,7.310608498365127605e-01
1.320000000000000062e+00,7.327662032988623286e-01
1.330000000000000071e+00,7.345287985924491281e-01
1.340000000000000080e+00,7.362870407729300570e-01
1.350000000000000089e+00,7.381121154363512460e-01
1.360000000000000098e+00,7.398611670906958260e-01
1.370000000000000107e+00,7.417038694414483935e-01
1.380000000000000115e+00,7.433858241768538377e-01
1.390000000000000124e+00,7.450543274660580417e-01
1.400000000000000133e+00,7.467649330000738495e-01
1.410000000000000142e+00,7.483895757162366547e-01
1.419999999999999929e+00,7.499887979450555742e-01
1.429999999999999938e+00,7.517064820085341825e-01
1.439999999999999947e+00,7.532830176082222495e-01
1.449999999999999956e+00,7.547730867385239462e-01
1.459999999999999964e+00,7.562975982327982960e-01
1.469999999999999973e+00,7.578000723882312162e-01
1.479999999999999982e+00,7.593818617650986980e-01
1.489999999999999991e+00,7.608395449041358560e-01
1.500000000000000000e+00,7.623526002702396553e-01
1.510000000000000009e+00,7.638444537688799940e-01
1.520000000000000018e+00,7.650520951669099734e-01
1.530000000000000027e+00,7.664984224693307535e-01
1.540000000000000036e+00,7.679107283136882289e-01
1.550000000000000044e+00,7.692601418816904513e-01
1.560000000000000053e+00,7.705319434505980558e-01
1.570000000000000062e+00,7.719644165059001972e-01
1.580000000000000071e+00,7.731640601971211391e-01
1.590000000000000080e+00,7.743222539840423080e-01
1.600000000000000089e+00,7.755385253799045309e-01
1.610000000000000098e+00,7.769971193300014844e-01
1.620000000000000107e+00,7.782127063200247052e-01
1.630000000000000115e+00,7.793975205451977306e-01
1.640000000000000124e+00,7.804406129669638759e-01
1.650000000000000133e+00,7.815905583566578052e-01
1.660000000000000142e+00,7.827482739565516656e-01
1.670000000000000151e+00,7.840661005236184700e-01
1.679999999999999938e+00,7.852689488083552938e-01
1.689999999999999947e+00,7.862925829225757557e-01
1.699999999999999956e+00,7.873411067246522954e-01
1.709999999999999964e+00,7.884416357284343979e-01
1.719999999999999973e+00,7.895097952691721988e-01
1.729999999999999982e+00,7.906163857704843201e-01
1.739999999999999991e+00,7.914837914720465051e-01
1.750000000000000000e+00,7.925349181325516135e-01
1.760000000000000009e+00,7.936369748775947697e-01
1.770000000000000018e+00,7.947758045012650596e-01
1.780000000000000027e+00,7.956248599235147267e-01
1.790000000000000036e+00,7.966331924119874897e-01
1.800000000000000044e+00,7.975883601184272642e-01
1.810000000000000053e+00,7.984205332324795235e-01
1.820000000000000062e+00,7.993462310476512345e-01
1.830000000000000071e+00,8.003851275016813371e-01
1.840000000000000080e+00,8.013700701771496737e-01
1.850000000000000089e+00,8.020636718010512034e-01
1.860000000000000098e+00,8.027811181311821365e-01
1.870000000000000107e+00,8.037006915759045134e-01
1.880000000000000115e+00,8.045647583403447989e-01
1.890000000000000124e+00,8.054194705340854687e-01
1.900000000000000133e+00,8.061627334249991117e-01
1.910000000000000142e+00,8.070398587980825988e-01
1.920000000000000151e+00,8.076941050298490632e-01
1.929999999999999938e+00,8.086049155501505714e-01
1.939999999999999947e+00,8.096067396664372584e-01
1.949999999999999956e+00,8.103382463747967890e-01
1.959999999999999964e+00,8.110137150542857665e-01
1.969999999999999973e+00,8.119095319950748735e-01
1.979999999999999982e+00,8.125723623827438846e-01
1.989999999999999991e+00,8.130136931775479026e-01
2.000000000000000000e+00,8.139717372504159387e-01
2.009999999999999787e+00,8.145730541235773892e-01
2.020000000000000018e+00,8.153617783793803975e-01
2.029999999999999805e+00,8.161228811470657707e-01
2.040000000000000036e+00,8.167788324525270260e-01
2.049999999999999822e+00,8.174825202899902443e-01
2.059999999999999609e+00,8.181265431010688038e-01
2.069999999999999840e+00,8.188853186111220150e-01
2.079999999999999627e+00,8.194847806456544426e-01
2.089999999999999858e+00,8.202755887717135819e-01
2.099999999999999645e+00,8.209246350541813397e-01
2.109999999999999876e+00,8.212471877922208341e-01
2.119999999999999662e+00,8.219976963629139766e-01
2.129999999999999893e+00,8.224447094726666796e-01
2.139999999999999680e+00,8.230328131020249183e-01
2.149999999999999911e+00,8.236730991170265748e-01
2.159999999999999698e+00,8.242875298346037383e-01
2.169999999999999929e+00,8.248305621745380956e-01
2.179999999999999716e+00,8.254134163533124458e-01
2.189999999999999947e+00,8.258711940708113319e-01
2.199999999999999734e+00,8.264134279640462655e-01
2.209999999999999964e+00,8.269569793478669384e-01
2.219999999999999751e+00,8.271953055891938522e-01
2.229999999999999982e+00,8.280015586807443206e-01
2.239999999999999769e+00,8.285933203147005655e-01
2.250000000000000000e+00,8.291090342749350972e-01
2.259999999999999787e+00,8.296397454691244455e-01
2.270000000000000018e+00,8.301020038271379464e-01
2.279999999999999805e+00,8.307121660255973872e-01
2.290000000000000036e+00,8.311597282222590310e-01
2.299999999999999822e+00,8.314721746912343558e-01
2.310000000000000053e+00,8.320569077417906412e-01
2.319999999999999840e+00,8.325236242461693248e-01
2.329999999999999627e+00,8.329877864328908421e-01
2.339999999999999858e+00,8.334512242083633726e-01
2.349999999999999645e+00,8.338418650037346946e-01
2.359999999999999876e+00,8.341063901550058723e-01
2.369999999999999662e+00,8.345332046289114514e-01
2.379999999999999893e+00,8.351524602313209478e-01
2.389999999999999680e+00,8.356120687843826556e-01
2.399999999999999911e+00,8.358540646576816391e-01
2.409999999999999698e+00,8.361745563254591174e-01
2.419999999999999929e+00,8.367880514070681341e-01
2.429999999999999716e+00,8.371601061891592588e-01
2.439999999999999947e+00,8.374874179666358387e-01
2.449999999999999734e+00,8.377992749508025305e-01
2.459999999999999964e+00,8.381717763216270933e-01
2.469999999999999751e+00,8.386617631190518285e-01
2.479999999999999982e+00,8.390871733777136576e-01
2.489999999999999769e+00,8.392996446206791861e-01
2.500000000000000000e+00,8.397037789187851153e-01
2.509999999999999787e+00,8.400516995586621016e-01
2.520000000000000018e+00,8.403084355228044311e-01
2.529999999999999805e+00,8.407386348312787527e-01
2.540000000000000036e+00,8.411086915057864877e-01
2.549999999999999822e+00,8.414320885759016821e-01
2.560000000000000053e+00,8.417800628775653493e-01
2.569999999999999840e+00,8.420939524143566945e-01
2.579999999999999627e+00,8.423592845224470160e-01
2.589999999999999858e+00,8.424610091545281509e-01
2.599999999999999645e+00,8.427535284727609710e-01
2.609999999999999876e+00,8.431244317852120140e-01
2.619999999999999662e+00,8.433756537081187332e-01
2.629999999999999893e+00,8.437227029198217654e-01
2.639999999999999680e+00,8.441230278568579992e-01
2.649999999999999911e+00,8.445494315618544690e-01
2.659999999999999698e+00,8.448055058819712304e-01
2.669999999999999929e+00,8.449631785725806310e-01
2.679999999999999716e+00,8.452610149613011270e-01
2.689999999999999947e+00,8.455731156762789080e-01
2.699999999999999734e+00,8.458961310035612025e-01
2.709999999999999964e+00,8.459916251004954146e-01
2.719999999999999751e+00,8.461187733374549991e-01
2.729999999999999982e+00,8.462946850200268045e-01
2.739999999999999769e+00,8.469127335685867619e-01
2.750000000000000000e+00,8.473582944717569232e-01
2.759999999999999787e+00,8.471959080075164294e-01
2.770000000000000018e+00,8.472235641847685184e-01
2.779999999999999805e+00,8.473794408602434158e-01
2.790000000000000036e+00,8.479598977746067856e-01
2.799999999999999822e+00,8.482957046161829773e-01
2.810000000000000053e+00,8.483869056413564369e-01
2.819999999999999840e+00,8.487971208237842236e-01
2.829999999999999627e+00,8.490908087974230467e-01
2.839999999999999858e+00,8.489470751308304530e-01
2.849999999999999645e+00,8.491649022508254152e-01
2.859999999999999876e+00,8.495920223522039905e-01
2.869999999999999662e+00,8.498813368404676272e-01
2.879999999999999893e+00,8.500856420132528735e-01
2.889999999999999680e+00,8.501322132805968490e-01
2.899999999999999911e+00,8.501525895560411161e-01
2.909999999999999698e+00,8.501587870241267275e-01
2.919999999999999929e+00,8.502543392769783548e-01
2.929999999999999716e+00,8.504647407234132706e-01
2.939999999999999947e+00,8.509177811967423288e-01
2.949999999999999734e+00,8.512131040707709984e-01
2.959999999999999964e+00,8.514163356524726556e-01
2.969999999999999751e+00,8.514550882856248837e-01
2.979999999999999982e+00,8.515612411526610748e-01
2.989999999999999769e+00,8.519436667443999189e-01
3.000000000000000000e+00,8.522381796538266441e-01
3.009999999999999787e+00,8.524479629005451420e-01
3.020000000000000018e+00,8.524704524318525989e-01
3.029999999999999805e+00,8.524445580412042256e-01
3.040000000000000036e+00,8.525807259553461748e-01
3.049999999999999822e+00,8.527280861155935865e-01
3.060000000000000053e+00,8.529075937931416274e-01
3.069999999999999840e+00,8.529273743788100548e-01
3.080000000000000071e+00,8.528077518356370623e-01
3.089999999999999858e+00,8.530406550984210856e-01
3.099999999999999645e+00,8.533792686147174678e-01
3.109999999999999876e+00,8.534634276665356012e-01
3.119999999999999662e+00,8.535883899598901703e-01
3.129999999999999893e+00,8.539124333587304605e-01
3.139999999999999680e+00,8.541928000416295630e-01
3.149999999999999911e+00,8.544090408947547788e-01
3.159999999999999698e+00,8.545070813615280869e-01
3.169999999999999929e+00,8.545200759003407365e-01
3.179999999999999716e+00,8.545908573389346952e-01
3.189999999999999947e+00,8.546779461499334207e-01
3.199999999999999734e+00,8.547868587675802043e-01
3.209999999999999964e+00,8.548889324837983805e-01
3.219999999999999751e+00,8.549297195395232363e-01
3.229999999999999982e+00,8.549998918428484140e-01
3.239999999999999769e+00,8.551713765062523009e-01
3.250000000000000000e+00,8.553544281933530558e-01
3.259999999999999787e+00,8.555593799623744111e-01
3.270000000000000018e+00,8.555990584038657421e-01
3.279999999999999805e+00,8.554735057544329280e-01
3.290000000000000036e+00,8.555783388535089795e-01
3.299999999999999822e+00,8.558265639948859915e-01
3.310000000000000053e+00,8.557995532730364729e-01
3.319999999999999840e+00,8.556635515961498184e-01
3.330000000000000071e+00,8.558664243601569188e-01
3.339999999999999858e+00,8.561457177339280022e-01
3.349999999999999645e+00,8.563622096003554729e-01
3.359999999999999876e+00,8.565679567309676390e-01
3.369999999999999662e+00,8.565226030906499810e-01
3.379999999999999893e+00,8.564676497315437675e-01
3.389999999999999680e+00,8.564743726409413949e-01
3.399999999999999911e+00,8.564968657536385921e-01
3.409999999999999698e+00,8.567433277157195937e-01
3.419999999999999929e+00,8.569704721080316778e-01
3.429999999999999716e+00,8.570667905528130959e-01
3.439999999999999947e+00,8.571530231093116292e-01
3.449999999999999734e+00,8.571871400783820372e-01
3.459999999999999964e+00,8.572003824565674890e-01
3.469999999999999751e+00,8.571047343534474727e-01
3.479999999999999982e+00,8.570225953710104427e-01
3.489999999999999769e+00,8.570177405789053404e-01
3.500000000000000000e+00,8.570628631421152166e-01
3.509999999999999787e+00,8.574083688432082573e-01
3.520000000000000018e+00,8.577073336836857909e-01
3.529999999999999805e+00,8.577069389464629934e-01
3.540000000000000036e+00,8.577146766079387641e-01
3.549999999999999822e+00,8.578133357945355586e-01
3.560000000000000053e+00,8.578988728230055871e-01
3.569999999999999840e+00,8.577847653545812578e-01
3.580000000000000071e+00,8.576703923673889562e-01
3.589999999999999858e+00,8.578410651985379776e-01
3.599999999999999645e+00,8.580100841786101329e-01
3.609999999999999876e+00,8.580052383418125261e-01
3.619999999999999662e+00,8.579863775760070421e-01
3.629999999999999893e+00,8.581257384690104129e-01
3.639999999999999680e+00,8.582904746393227313e-01
3.649999999999999911e+00,8.582686781199410087e-01
3.659999999999999698e+00,8.581879736795708924e-01
3.669999999999999929e+00,8.582048163779977257e-01
3.679999999999999716e+00,8.582714257507807476e-01
3.689999999999999947e+00,8.582916086679927004e-01
3.699999999999999734e+00,8.582726371505207119e-01
3.709999999999999964e+00,8.582560128675347233e-01
3.719999999999999751e+00,8.582432728384408183e-01
3.729999999999999982e+00,8.582629097853203826e-01
3.739999999999999769e+00,8.583685414813372327e-01
3.750000000000000000e+00,8.584632953586891491e-01
3.759999999999999787e+00,8.584938342937928901e-01
3.770000000000000018e+00,8.585231700090101281e-01
3.779999999999999805e+00,8.587063012580823385e-01
3.790000000000000036e+00,8.588934109931980476e-01
3.799999999999999822e+00,8.588189493317694989e-01
3.810000000000000053e+00,8.586726782534823688e-01
3.819999999999999840e+00,8.587213032844163152e-01
3.830000000000000071e+00,8.589011206317058722e-01
3.839999999999999858e+00,8.589761999866517561e-01
3.849999999999999645e+00,8.588916425148234168e-01
3.859999999999999876e+00,8.588558009690266948e-01
3.869999999999999662e+00,8.590457870332468548e-01
3.879999999999999893e+00,8.592334691950272996e-01
3.889999999999999680e+00,8.590932062674296876e-01
3.899999999999999911e+00,8.589358280509210575e-01
3.909999999999999698e+00,8.588428854340688368e-01
3.919999999999999929e+00,8.587761327811181955e-01
3.929999999999999716e+00,8.587447413254455375e-01
3.939999999999999947e+00,8.587548079029361237e-01
3.949999999999999734e+00,8.587860835184968344e-01
3.959999999999999964e+00,8.589104817121898661e-01
3.969999999999999751e+00,8.590330192428674572e-01
3.979999999999999982e+00,8.588605934836986977e-01
3.989999999999999769e+00,8.586601540447630354e-01
